" File: Users\Admin\Desktop\New folder\psk_absor
" ABSOR->  Wave:645.88nm  Pix:1050  Val:  0.946  Time:10ms  Avg:10  Sm:1  Sg:0 m32  Tc:off  SNAP  Xt:3  Ch:1  Xtrig
 184.00  1.0000E-003
 184.50  1.0000E-003
 185.00  1.0000E-003
 185.50  1.0000E-003
 186.00  1.0000E-003
 186.50  1.0000E-003
 187.00  1.0000E-003
 187.50  1.0000E-003
 188.00  1.0000E-003
 188.50  1.0000E-003
 189.00  1.0000E-003
 189.50  1.0000E-003
 190.00  3.2905E-001
 190.50  5.3998E-001
 191.00  5.3743E-001
 191.50  5.1484E-001
 192.00  4.5502E-001
 192.50  4.3574E-001
 193.00  4.4092E-001
 193.50  4.5920E-001
 194.00  4.5666E-001
 194.50  4.4452E-001
 195.00  4.2419E-001
 195.50  4.0098E-001
 196.00  4.1031E-001
 196.50  4.3407E-001
 197.00  4.5338E-001
 197.50  4.8177E-001
 198.00  5.1621E-001
 198.50  5.5619E-001
 199.00  6.0443E-001
 199.50  6.6705E-001
 200.00  6.9928E-001
 200.50  7.0805E-001
 201.00  6.9989E-001
 201.50  6.3731E-001
 202.00  5.7114E-001
 202.50  5.3837E-001
 203.00  5.3323E-001
 203.50  5.5915E-001
 204.00  5.9532E-001
 204.50  6.2826E-001
 205.00  6.3396E-001
 205.50  6.0453E-001
 206.00  5.8469E-001
 206.50  5.5815E-001
 207.00  5.3698E-001
 207.50  5.2596E-001
 208.00  5.0712E-001
 208.50  5.0872E-001
 209.00  5.3046E-001
 209.50  5.6423E-001
 210.00  6.0928E-001
 210.50  6.1274E-001
 211.00  6.0215E-001
 211.50  5.9840E-001
 212.00  5.7440E-001
 212.50  5.6996E-001
 213.00  5.8917E-001
 213.50  5.6785E-001
 214.00  5.4044E-001
 214.50  5.4422E-001
 215.00  5.5615E-001
 215.50  5.8008E-001
 216.00  6.0653E-001
 216.50  6.1594E-001
 217.00  5.9970E-001
 217.50  5.7044E-001
 218.00  5.6756E-001
 218.50  5.8439E-001
 219.00  5.9233E-001
 219.50  5.9130E-001
 220.00  5.7987E-001
 220.50  5.8923E-001
 221.00  6.3334E-001
 221.50  7.0883E-001
 222.00  7.7401E-001
 222.50  7.8851E-001
 223.00  7.5889E-001
 223.50  7.2598E-001
 224.00  7.1112E-001
 224.50  7.1942E-001
 225.00  6.9458E-001
 225.50  6.6737E-001
 226.00  6.6337E-001
 226.50  6.3845E-001
 227.00  6.0521E-001
 227.50  5.6648E-001
 228.00  5.0958E-001
 228.50  4.6494E-001
 229.00  4.3602E-001
 229.50  4.1334E-001
 230.00  4.0238E-001
 230.50  3.9169E-001
 231.00  3.9539E-001
 231.50  4.0975E-001
 232.00  4.2445E-001
 232.50  4.4322E-001
 233.00  4.3838E-001
 233.50  4.2277E-001
 234.00  4.1388E-001
 234.50  3.9893E-001
 235.00  3.8909E-001
 235.50  4.1766E-001
 236.00  4.3798E-001
 236.50  4.3474E-001
 237.00  4.3436E-001
 237.50  4.2121E-001
 238.00  4.0969E-001
 238.50  4.4215E-001
 239.00  4.9664E-001
 239.50  5.6287E-001
 240.00  6.5085E-001
 240.50  7.2911E-001
 241.00  7.4021E-001
 241.50  6.8745E-001
 242.00  6.1910E-001
 242.50  5.3926E-001
 243.00  4.8585E-001
 243.50  4.6725E-001
 244.00  4.5199E-001
 244.50  4.3772E-001
 245.00  4.2808E-001
 245.50  4.1469E-001
 246.00  4.1864E-001
 246.50  4.5787E-001
 247.00  5.0788E-001
 247.50  5.5783E-001
 248.00  6.2855E-001
 248.50  6.8273E-001
 249.00  6.6418E-001
 249.50  6.4078E-001
 250.00  6.3735E-001
 250.50  6.0977E-001
 251.00  5.9475E-001
 251.50  5.9253E-001
 252.00  5.7878E-001
 252.50  5.6489E-001
 253.00  5.6632E-001
 253.50  5.9715E-001
 254.00  6.4646E-001
 254.50  7.1927E-001
 255.00  7.9286E-001
 255.50  8.2508E-001
 256.00  8.3581E-001
 256.50  7.9406E-001
 257.00  7.2840E-001
 257.50  6.8322E-001
 258.00  6.4672E-001
 258.50  5.8963E-001
 259.00  5.4067E-001
 259.50  5.0441E-001
 260.00  4.7234E-001
 260.50  4.8477E-001
 261.00  5.3627E-001
 261.50  5.8318E-001
 262.00  6.4529E-001
 262.50  7.1595E-001
 263.00  7.3504E-001
 263.50  7.2279E-001
 264.00  7.1000E-001
 264.50  6.8763E-001
 265.00  6.8490E-001
 265.50  6.8654E-001
 266.00  6.5888E-001
 266.50  6.0349E-001
 267.00  5.5279E-001
 267.50  4.9778E-001
 268.00  4.7333E-001
 268.50  4.7145E-001
 269.00  4.6606E-001
 269.50  4.5259E-001
 270.00  4.4990E-001
 270.50  4.5033E-001
 271.00  4.6188E-001
 271.50  4.8792E-001
 272.00  5.2449E-001
 272.50  5.6362E-001
 273.00  5.9227E-001
 273.50  6.0926E-001
 274.00  6.4895E-001
 274.50  6.8787E-001
 275.00  7.0400E-001
 275.50  7.1357E-001
 276.00  6.9541E-001
 276.50  6.7116E-001
 277.00  6.8385E-001
 277.50  6.8915E-001
 278.00  6.9193E-001
 278.50  6.9250E-001
 279.00  6.9899E-001
 279.50  7.3731E-001
 280.00  7.7418E-001
 280.50  8.0023E-001
 281.00  7.9998E-001
 281.50  7.7190E-001
 282.00  7.3587E-001
 282.50  6.8547E-001
 283.00  6.7023E-001
 283.50  6.5051E-001
 284.00  6.0672E-001
 284.50  5.8506E-001
 285.00  5.7248E-001
 285.50  5.7006E-001
 286.00  5.9407E-001
 286.50  5.9500E-001
 287.00  5.8875E-001
 287.50  5.7940E-001
 288.00  5.6392E-001
 288.50  5.7940E-001
 289.00  6.1741E-001
 289.50  6.3852E-001
 290.00  6.6290E-001
 290.50  6.7516E-001
 291.00  6.7985E-001
 291.50  6.8456E-001
 292.00  7.0585E-001
 292.50  7.4222E-001
 293.00  7.7440E-001
 293.50  8.0151E-001
 294.00  8.4770E-001
 294.50  9.3110E-001
 295.00  1.0078E+000
 295.50  1.0521E+000
 296.00  9.9644E-001
 296.50  8.6205E-001
 297.00  7.6679E-001
 297.50  7.2901E-001
 298.00  7.0730E-001
 298.50  6.8273E-001
 299.00  6.4913E-001
 299.50  6.1079E-001
 300.00  5.8178E-001
 300.50  5.7455E-001
 301.00  5.6271E-001
 301.50  5.5758E-001
 302.00  5.5225E-001
 302.50  5.2447E-001
 303.00  4.9514E-001
 303.50  4.8577E-001
 304.00  5.0190E-001
 304.50  5.3815E-001
 305.00  5.8127E-001
 305.50  6.1670E-001
 306.00  6.0680E-001
 306.50  5.6280E-001
 307.00  5.3238E-001
 307.50  5.0302E-001
 308.00  4.7284E-001
 308.50  4.5411E-001
 309.00  4.5452E-001
 309.50  4.7596E-001
 310.00  5.0857E-001
 310.50  5.4320E-001
 311.00  5.6866E-001
 311.50  5.8450E-001
 312.00  5.8993E-001
 312.50  5.9186E-001
 313.00  6.0649E-001
 313.50  5.9789E-001
 314.00  5.7882E-001
 314.50  5.6471E-001
 315.00  5.3256E-001
 315.50  5.0415E-001
 316.00  4.9653E-001
 316.50  4.8928E-001
 317.00  5.0375E-001
 317.50  5.3632E-001
 318.00  5.6296E-001
 318.50  5.7853E-001
 319.00  5.7100E-001
 319.50  5.3892E-001
 320.00  5.0385E-001
 320.50  4.8508E-001
 321.00  4.9293E-001
 321.50  5.1733E-001
 322.00  5.5431E-001
 322.50  5.8083E-001
 323.00  5.9143E-001
 323.50  6.0410E-001
 324.00  6.0701E-001
 324.50  5.9520E-001
 325.00  5.8259E-001
 325.50  5.6384E-001
 326.00  5.3571E-001
 326.50  5.2538E-001
 327.00  5.3675E-001
 327.50  5.6244E-001
 328.00  6.0398E-001
 328.50  6.3526E-001
 329.00  6.2534E-001
 329.50  5.8773E-001
 330.00  5.5019E-001
 330.50  5.3198E-001
 331.00  5.2676E-001
 331.50  5.3117E-001
 332.00  5.5521E-001
 332.50  5.7936E-001
 333.00  5.8609E-001
 333.50  6.0901E-001
 334.00  6.3327E-001
 334.50  6.3896E-001
 335.00  6.6876E-001
 335.50  7.1570E-001
 336.00  7.4574E-001
 336.50  7.5837E-001
 337.00  7.6218E-001
 337.50  7.4514E-001
 338.00  7.4094E-001
 338.50  7.6721E-001
 339.00  7.8324E-001
 339.50  7.7805E-001
 340.00  7.5110E-001
 340.50  7.2230E-001
 341.00  7.0080E-001
 341.50  6.9638E-001
 342.00  7.2716E-001
 342.50  7.6861E-001
 343.00  8.1346E-001
 343.50  8.6814E-001
 344.00  9.0134E-001
 344.50  8.9606E-001
 345.00  8.6563E-001
 345.50  8.2546E-001
 346.00  7.9303E-001
 346.50  8.1347E-001
 347.00  8.4996E-001
 347.50  8.7734E-001
 348.00  8.9986E-001
 348.50  9.0078E-001
 349.00  8.8371E-001
 349.50  8.7758E-001
 350.00  8.8205E-001
 350.50  8.8947E-001
 351.00  8.8755E-001
 351.50  8.7551E-001
 352.00  8.5774E-001
 352.50  8.4957E-001
 353.00  8.5249E-001
 353.50  8.5230E-001
 354.00  8.5040E-001
 354.50  8.4584E-001
 355.00  8.4292E-001
 355.50  8.6183E-001
 356.00  9.1139E-001
 356.50  9.6820E-001
 357.00  9.9955E-001
 357.50  1.0163E+000
 358.00  1.0125E+000
 358.50  1.0015E+000
 359.00  9.9986E-001
 359.50  9.9141E-001
 360.00  9.7277E-001
 360.50  9.6007E-001
 361.00  9.4578E-001
 361.50  9.4445E-001
 362.00  9.6273E-001
 362.50  9.7916E-001
 363.00  9.9835E-001
 363.50  1.0007E+000
 364.00  9.6664E-001
 364.50  9.5461E-001
 365.00  9.7562E-001
 365.50  9.9986E-001
 366.00  1.0399E+000
 366.50  1.0729E+000
 367.00  1.0647E+000
 367.50  1.0685E+000
 368.00  1.1353E+000
 368.50  1.2162E+000
 369.00  1.2552E+000
 369.50  1.2151E+000
 370.00  1.1226E+000
 370.50  1.0292E+000
 371.00  9.8324E-001
 371.50  9.9570E-001
 372.00  1.0375E+000
 372.50  1.0823E+000
 373.00  1.1173E+000
 373.50  1.1091E+000
 374.00  1.0691E+000
 374.50  1.0267E+000
 375.00  9.8211E-001
 375.50  9.6709E-001
 376.00  9.9112E-001
 376.50  1.0190E+000
 377.00  1.0466E+000
 377.50  1.0629E+000
 378.00  1.0380E+000
 378.50  1.0040E+000
 379.00  1.0125E+000
 379.50  1.0642E+000
 380.00  1.1336E+000
 380.50  1.2022E+000
 381.00  1.2115E+000
 381.50  1.1127E+000
 382.00  1.0169E+000
 382.50  9.6420E-001
 383.00  9.2687E-001
 383.50  9.3096E-001
 384.00  9.5949E-001
 384.50  9.6485E-001
 385.00  9.6345E-001
 385.50  9.5829E-001
 386.00  9.5754E-001
 386.50  9.6326E-001
 387.00  9.5084E-001
 387.50  9.3251E-001
 388.00  9.1191E-001
 388.50  8.9294E-001
 389.00  8.8330E-001
 389.50  8.8076E-001
 390.00  8.8809E-001
 390.50  8.8035E-001
 391.00  8.4208E-001
 391.50  8.0702E-001
 392.00  7.7439E-001
 392.50  7.4319E-001
 393.00  7.1280E-001
 393.50  6.8690E-001
 394.00  6.7322E-001
 394.50  6.6182E-001
 395.00  6.5528E-001
 395.50  6.6423E-001
 396.00  6.7504E-001
 396.50  6.7789E-001
 397.00  6.8287E-001
 397.50  7.0281E-001
 398.00  7.3750E-001
 398.50  7.7425E-001
 399.00  8.0805E-001
 399.50  8.2976E-001
 400.00  8.2318E-001
 400.50  7.9944E-001
 401.00  7.7761E-001
 401.50  7.6464E-001
 402.00  7.7149E-001
 402.50  7.8865E-001
 403.00  8.0788E-001
 403.50  8.1940E-001
 404.00  8.1507E-001
 404.50  8.0617E-001
 405.00  8.0811E-001
 405.50  8.2358E-001
 406.00  8.5648E-001
 406.50  9.0401E-001
 407.00  9.3967E-001
 407.50  9.3704E-001
 408.00  8.9937E-001
 408.50  8.4019E-001
 409.00  7.8881E-001
 409.50  7.8033E-001
 410.00  8.0390E-001
 410.50  8.4348E-001
 411.00  8.7559E-001
 411.50  8.7972E-001
 412.00  8.6289E-001
 412.50  8.5647E-001
 413.00  8.7607E-001
 413.50  9.1657E-001
 414.00  9.5993E-001
 414.50  9.7864E-001
 415.00  9.4660E-001
 415.50  8.9516E-001
 416.00  8.3558E-001
 416.50  7.9899E-001
 417.00  7.8250E-001
 417.50  7.7487E-001
 418.00  8.0705E-001
 418.50  8.8434E-001
 419.00  9.6626E-001
 419.50  1.0325E+000
 420.00  1.0835E+000
 420.50  1.0482E+000
 421.00  9.5685E-001
 421.50  8.7899E-001
 422.00  8.1905E-001
 422.50  7.7124E-001
 423.00  7.5395E-001
 423.50  7.6834E-001
 424.00  8.0437E-001
 424.50  8.4539E-001
 425.00  8.6409E-001
 425.50  8.6731E-001
 426.00  8.6342E-001
 426.50  8.4731E-001
 427.00  8.4919E-001
 427.50  8.7523E-001
 428.00  9.1149E-001
 428.50  9.5077E-001
 429.00  9.7893E-001
 429.50  9.6811E-001
 430.00  9.1268E-001
 430.50  8.6677E-001
 431.00  8.2726E-001
 431.50  8.0394E-001
 432.00  8.1872E-001
 432.50  8.4445E-001
 433.00  8.7234E-001
 433.50  9.1465E-001
 434.00  9.4112E-001
 434.50  9.5121E-001
 435.00  9.3840E-001
 435.50  9.1665E-001
 436.00  9.1279E-001
 436.50  9.1131E-001
 437.00  9.1506E-001
 437.50  9.2887E-001
 438.00  9.4756E-001
 438.50  9.7522E-001
 439.00  9.8890E-001
 439.50  9.8052E-001
 440.00  9.7143E-001
 440.50  9.4533E-001
 441.00  9.3236E-001
 441.50  9.3305E-001
 442.00  9.2790E-001
 442.50  9.3875E-001
 443.00  9.7263E-001
 443.50  1.0054E+000
 444.00  1.0480E+000
 444.50  1.0772E+000
 445.00  1.0461E+000
 445.50  9.8426E-001
 446.00  9.3083E-001
 446.50  8.8837E-001
 447.00  8.6401E-001
 447.50  8.6792E-001
 448.00  8.9316E-001
 448.50  9.1342E-001
 449.00  9.3632E-001
 449.50  9.5201E-001
 450.00  9.5722E-001
 450.50  9.6265E-001
 451.00  9.6329E-001
 451.50  9.5448E-001
 452.00  9.5113E-001
 452.50  9.4702E-001
 453.00  9.4184E-001
 453.50  9.4793E-001
 454.00  9.4742E-001
 454.50  9.2630E-001
 455.00  9.1358E-001
 455.50  9.1617E-001
 456.00  9.3173E-001
 456.50  9.5859E-001
 457.00  9.8507E-001
 457.50  9.9540E-001
 458.00  1.0074E+000
 458.50  1.0234E+000
 459.00  1.0438E+000
 459.50  1.0629E+000
 460.00  1.0716E+000
 460.50  1.0741E+000
 461.00  1.0816E+000
 461.50  1.1097E+000
 462.00  1.1342E+000
 462.50  1.1323E+000
 463.00  1.1133E+000
 463.50  1.0998E+000
 464.00  1.0919E+000
 464.50  1.1068E+000
 465.00  1.1287E+000
 465.50  1.1130E+000
 466.00  1.0856E+000
 466.50  1.0948E+000
 467.00  1.1124E+000
 467.50  1.1296E+000
 468.00  1.1599E+000
 468.50  1.1758E+000
 469.00  1.1648E+000
 469.50  1.1708E+000
 470.00  1.1971E+000
 470.50  1.2030E+000
 471.00  1.1893E+000
 471.50  1.1511E+000
 472.00  1.1097E+000
 472.50  1.0842E+000
 473.00  1.0675E+000
 473.50  1.0647E+000
 474.00  1.0695E+000
 474.50  1.0677E+000
 475.00  1.0804E+000
 475.50  1.1045E+000
 476.00  1.1351E+000
 476.50  1.1734E+000
 477.00  1.2235E+000
 477.50  1.2699E+000
 478.00  1.2920E+000
 478.50  1.2967E+000
 479.00  1.2917E+000
 479.50  1.2749E+000
 480.00  1.2768E+000
 480.50  1.2879E+000
 481.00  1.2993E+000
 481.50  1.3149E+000
 482.00  1.3309E+000
 482.50  1.3533E+000
 483.00  1.3916E+000
 483.50  1.4234E+000
 484.00  1.4395E+000
 484.50  1.4518E+000
 485.00  1.4589E+000
 485.50  1.4748E+000
 486.00  1.5151E+000
 486.50  1.5613E+000
 487.00  1.6064E+000
 487.50  1.6577E+000
 488.00  1.6725E+000
 488.50  1.6555E+000
 489.00  1.6586E+000
 489.50  1.6500E+000
 490.00  1.6520E+000
 490.50  1.6739E+000
 491.00  1.6760E+000
 491.50  1.6610E+000
 492.00  1.6336E+000
 492.50  1.5877E+000
 493.00  1.5540E+000
 493.50  1.5452E+000
 494.00  1.5474E+000
 494.50  1.5526E+000
 495.00  1.5640E+000
 495.50  1.5847E+000
 496.00  1.5974E+000
 496.50  1.6070E+000
 497.00  1.6207E+000
 497.50  1.6212E+000
 498.00  1.6165E+000
 498.50  1.6286E+000
 499.00  1.6390E+000
 499.50  1.6393E+000
 500.00  1.6297E+000
 500.50  1.6223E+000
 501.00  1.6189E+000
 501.50  1.6247E+000
 502.00  1.6391E+000
 502.50  1.6492E+000
 503.00  1.6611E+000
 503.50  1.6664E+000
 504.00  1.6622E+000
 504.50  1.6661E+000
 505.00  1.6714E+000
 505.50  1.6773E+000
 506.00  1.6917E+000
 506.50  1.7046E+000
 507.00  1.7038E+000
 507.50  1.6961E+000
 508.00  1.6858E+000
 508.50  1.6861E+000
 509.00  1.6971E+000
 509.50  1.7095E+000
 510.00  1.7152E+000
 510.50  1.7139E+000
 511.00  1.7044E+000
 511.50  1.6988E+000
 512.00  1.7044E+000
 512.50  1.7194E+000
 513.00  1.7403E+000
 513.50  1.7634E+000
 514.00  1.7763E+000
 514.50  1.7738E+000
 515.00  1.7673E+000
 515.50  1.7586E+000
 516.00  1.7520E+000
 516.50  1.7592E+000
 517.00  1.7694E+000
 517.50  1.7582E+000
 518.00  1.7437E+000
 518.50  1.7246E+000
 519.00  1.7063E+000
 519.50  1.6939E+000
 520.00  1.6835E+000
 520.50  1.6729E+000
 521.00  1.6621E+000
 521.50  1.6497E+000
 522.00  1.6429E+000
 522.50  1.6448E+000
 523.00  1.6537E+000
 523.50  1.6608E+000
 524.00  1.6670E+000
 524.50  1.6698E+000
 525.00  1.6644E+000
 525.50  1.6572E+000
 526.00  1.6510E+000
 526.50  1.6427E+000
 527.00  1.6396E+000
 527.50  1.6389E+000
 528.00  1.6344E+000
 528.50  1.6301E+000
 529.00  1.6234E+000
 529.50  1.6155E+000
 530.00  1.6077E+000
 530.50  1.6004E+000
 531.00  1.5991E+000
 531.50  1.6014E+000
 532.00  1.6021E+000
 532.50  1.6047E+000
 533.00  1.6032E+000
 533.50  1.5949E+000
 534.00  1.5833E+000
 534.50  1.5732E+000
 535.00  1.5662E+000
 535.50  1.5609E+000
 536.00  1.5610E+000
 536.50  1.5671E+000
 537.00  1.5719E+000
 537.50  1.5754E+000
 538.00  1.5783E+000
 538.50  1.5773E+000
 539.00  1.5777E+000
 539.50  1.5835E+000
 540.00  1.5942E+000
 540.50  1.6086E+000
 541.00  1.6272E+000
 541.50  1.6472E+000
 542.00  1.6628E+000
 542.50  1.6712E+000
 543.00  1.6764E+000
 543.50  1.6752E+000
 544.00  1.6703E+000
 544.50  1.6667E+000
 545.00  1.6653E+000
 545.50  1.6580E+000
 546.00  1.6429E+000
 546.50  1.6241E+000
 547.00  1.6022E+000
 547.50  1.5804E+000
 548.00  1.5618E+000
 548.50  1.5444E+000
 549.00  1.5283E+000
 549.50  1.5127E+000
 550.00  1.4968E+000
 550.50  1.4842E+000
 551.00  1.4754E+000
 551.50  1.4649E+000
 552.00  1.4549E+000
 552.50  1.4485E+000
 553.00  1.4391E+000
 553.50  1.4284E+000
 554.00  1.4214E+000
 554.50  1.4151E+000
 555.00  1.4088E+000
 555.50  1.4059E+000
 556.00  1.4036E+000
 556.50  1.3988E+000
 557.00  1.3920E+000
 557.50  1.3831E+000
 558.00  1.3742E+000
 558.50  1.3683E+000
 559.00  1.3653E+000
 559.50  1.3643E+000
 560.00  1.3640E+000
 560.50  1.3632E+000
 561.00  1.3617E+000
 561.50  1.3592E+000
 562.00  1.3545E+000
 562.50  1.3485E+000
 563.00  1.3431E+000
 563.50  1.3383E+000
 564.00  1.3339E+000
 564.50  1.3301E+000
 565.00  1.3276E+000
 565.50  1.3246E+000
 566.00  1.3209E+000
 566.50  1.3195E+000
 567.00  1.3204E+000
 567.50  1.3206E+000
 568.00  1.3201E+000
 568.50  1.3178E+000
 569.00  1.3121E+000
 569.50  1.3049E+000
 570.00  1.2989E+000
 570.50  1.2956E+000
 571.00  1.2946E+000
 571.50  1.2935E+000
 572.00  1.2920E+000
 572.50  1.2900E+000
 573.00  1.2865E+000
 573.50  1.2811E+000
 574.00  1.2749E+000
 574.50  1.2686E+000
 575.00  1.2634E+000
 575.50  1.2592E+000
 576.00  1.2563E+000
 576.50  1.2549E+000
 577.00  1.2546E+000
 577.50  1.2539E+000
 578.00  1.2523E+000
 578.50  1.2510E+000
 579.00  1.2497E+000
 579.50  1.2465E+000
 580.00  1.2446E+000
 580.50  1.2442E+000
 581.00  1.2431E+000
 581.50  1.2422E+000
 582.00  1.2410E+000
 582.50  1.2388E+000
 583.00  1.2375E+000
 583.50  1.2357E+000
 584.00  1.2327E+000
 584.50  1.2303E+000
 585.00  1.2274E+000
 585.50  1.2226E+000
 586.00  1.2180E+000
 586.50  1.2143E+000
 587.00  1.2111E+000
 587.50  1.2076E+000
 588.00  1.2054E+000
 588.50  1.2035E+000
 589.00  1.2001E+000
 589.50  1.1967E+000
 590.00  1.1923E+000
 590.50  1.1862E+000
 591.00  1.1812E+000
 591.50  1.1772E+000
 592.00  1.1739E+000
 592.50  1.1726E+000
 593.00  1.1711E+000
 593.50  1.1687E+000
 594.00  1.1669E+000
 594.50  1.1646E+000
 595.00  1.1615E+000
 595.50  1.1591E+000
 596.00  1.1572E+000
 596.50  1.1548E+000
 597.00  1.1528E+000
 597.50  1.1515E+000
 598.00  1.1497E+000
 598.50  1.1470E+000
 599.00  1.1437E+000
 599.50  1.1397E+000
 600.00  1.1347E+000
 600.50  1.1299E+000
 601.00  1.1257E+000
 601.50  1.1222E+000
 602.00  1.1204E+000
 602.50  1.1197E+000
 603.00  1.1183E+000
 603.50  1.1174E+000
 604.00  1.1162E+000
 604.50  1.1142E+000
 605.00  1.1130E+000
 605.50  1.1125E+000
 606.00  1.1119E+000
 606.50  1.1110E+000
 607.00  1.1096E+000
 607.50  1.1084E+000
 608.00  1.1087E+000
 608.50  1.1111E+000
 609.00  1.1160E+000
 609.50  1.1222E+000
 610.00  1.1268E+000
 610.50  1.1286E+000
 611.00  1.1274E+000
 611.50  1.1235E+000
 612.00  1.1178E+000
 612.50  1.1108E+000
 613.00  1.1029E+000
 613.50  1.0956E+000
 614.00  1.0886E+000
 614.50  1.0830E+000
 615.00  1.0791E+000
 615.50  1.0758E+000
 616.00  1.0721E+000
 616.50  1.0688E+000
 617.00  1.0657E+000
 617.50  1.0628E+000
 618.00  1.0605E+000
 618.50  1.0579E+000
 619.00  1.0551E+000
 619.50  1.0528E+000
 620.00  1.0496E+000
 620.50  1.0459E+000
 621.00  1.0434E+000
 621.50  1.0409E+000
 622.00  1.0380E+000
 622.50  1.0353E+000
 623.00  1.0333E+000
 623.50  1.0311E+000
 624.00  1.0288E+000
 624.50  1.0274E+000
 625.00  1.0266E+000
 625.50  1.0247E+000
 626.00  1.0217E+000
 626.50  1.0192E+000
 627.00  1.0165E+000
 627.50  1.0141E+000
 628.00  1.0129E+000
 628.50  1.0126E+000
 629.00  1.0119E+000
 629.50  1.0112E+000
 630.00  1.0098E+000
 630.50  1.0070E+000
 631.00  1.0042E+000
 631.50  1.0019E+000
 632.00  9.9943E-001
 632.50  9.9776E-001
 633.00  9.9634E-001
 633.50  9.9465E-001
 634.00  9.9283E-001
 634.50  9.9023E-001
 635.00  9.8741E-001
 635.50  9.8443E-001
 636.00  9.8102E-001
 636.50  9.7835E-001
 637.00  9.7682E-001
 637.50  9.7549E-001
 638.00  9.7412E-001
 638.50  9.7240E-001
 639.00  9.6979E-001
 639.50  9.6720E-001
 640.00  9.6574E-001
 640.50  9.6536E-001
 641.00  9.6561E-001
 641.50  9.6568E-001
 642.00  9.6453E-001
 642.50  9.6234E-001
 643.00  9.6004E-001
 643.50  9.5776E-001
 644.00  9.5551E-001
 644.50  9.5364E-001
 645.00  9.5165E-001
 645.50  9.4866E-001
 646.00  9.4535E-001
 646.50  9.4253E-001
 647.00  9.4012E-001
 647.50  9.3829E-001
 648.00  9.3769E-001
 648.50  9.3798E-001
 649.00  9.3813E-001
 649.50  9.3801E-001
 650.00  9.3736E-001
 650.50  9.3600E-001
 651.00  9.3459E-001
 651.50  9.3361E-001
 652.00  9.3288E-001
 652.50  9.3239E-001
 653.00  9.3153E-001
 653.50  9.3060E-001
 654.00  9.2918E-001
 654.50  9.2733E-001
 655.00  9.2553E-001
 655.50  9.2362E-001
 656.00  9.2173E-001
 656.50  9.1995E-001
 657.00  9.1823E-001
 657.50  9.1737E-001
 658.00  9.1712E-001
 658.50  9.1704E-001
 659.00  9.1690E-001
 659.50  9.1599E-001
 660.00  9.1436E-001
 660.50  9.1246E-001
 661.00  9.1063E-001
 661.50  9.0943E-001
 662.00  9.0885E-001
 662.50  9.0799E-001
 663.00  9.0631E-001
 663.50  9.0398E-001
 664.00  9.0126E-001
 664.50  8.9849E-001
 665.00  8.9668E-001
 665.50  8.9623E-001
 666.00  8.9639E-001
 666.50  8.9660E-001
 667.00  8.9634E-001
 667.50  8.9503E-001
 668.00  8.9332E-001
 668.50  8.9176E-001
 669.00  8.9044E-001
 669.50  8.8964E-001
 670.00  8.8921E-001
 670.50  8.8852E-001
 671.00  8.8707E-001
 671.50  8.8432E-001
 672.00  8.8126E-001
 672.50  8.7900E-001
 673.00  8.7825E-001
 673.50  8.7872E-001
 674.00  8.7958E-001
 674.50  8.8009E-001
 675.00  8.7931E-001
 675.50  8.7730E-001
 676.00  8.7540E-001
 676.50  8.7408E-001
 677.00  8.7326E-001
 677.50  8.7248E-001
 678.00  8.7078E-001
 678.50  8.6867E-001
 679.00  8.6688E-001
 679.50  8.6507E-001
 680.00  8.6387E-001
 680.50  8.6352E-001
 681.00  8.6334E-001
 681.50  8.6277E-001
 682.00  8.6150E-001
 682.50  8.5959E-001
 683.00  8.5788E-001
 683.50  8.5594E-001
 684.00  8.5492E-001
 684.50  8.5562E-001
 685.00  8.5638E-001
 685.50  8.5667E-001
 686.00  8.5677E-001
 686.50  8.5586E-001
 687.00  8.5476E-001
 687.50  8.5405E-001
 688.00  8.5365E-001
 688.50  8.5351E-001
 689.00  8.5304E-001
 689.50  8.5188E-001
 690.00  8.5011E-001
 690.50  8.4848E-001
 691.00  8.4724E-001
 691.50  8.4608E-001
 692.00  8.4501E-001
 692.50  8.4417E-001
 693.00  8.4274E-001
 693.50  8.4058E-001
 694.00  8.3855E-001
 694.50  8.3702E-001
 695.00  8.3546E-001
 695.50  8.3407E-001
 696.00  8.3333E-001
 696.50  8.3251E-001
 697.00  8.3096E-001
 697.50  8.2932E-001
 698.00  8.2784E-001
 698.50  8.2576E-001
 699.00  8.2372E-001
 699.50  8.2207E-001
 700.00  8.2028E-001
 700.50  8.1886E-001
 701.00  8.1805E-001
 701.50  8.1776E-001
 702.00  8.1825E-001
 702.50  8.1931E-001
 703.00  8.1999E-001
 703.50  8.2010E-001
 704.00  8.2003E-001
 704.50  8.1955E-001
 705.00  8.1795E-001
 705.50  8.1601E-001
 706.00  8.1438E-001
 706.50  8.1289E-001
 707.00  8.1170E-001
 707.50  8.1141E-001
 708.00  8.1165E-001
 708.50  8.1148E-001
 709.00  8.1052E-001
 709.50  8.0950E-001
 710.00  8.0856E-001
 710.50  8.0744E-001
 711.00  8.0643E-001
 711.50  8.0520E-001
 712.00  8.0356E-001
 712.50  8.0250E-001
 713.00  8.0159E-001
 713.50  8.0057E-001
 714.00  7.9973E-001
 714.50  7.9837E-001
 715.00  7.9642E-001
 715.50  7.9467E-001
 716.00  7.9365E-001
 716.50  7.9292E-001
 717.00  7.9233E-001
 717.50  7.9181E-001
 718.00  7.9088E-001
 718.50  7.8958E-001
 719.00  7.8866E-001
 719.50  7.8804E-001
 720.00  7.8758E-001
 720.50  7.8708E-001
 721.00  7.8643E-001
 721.50  7.8523E-001
 722.00  7.8359E-001
 722.50  7.8186E-001
 723.00  7.8059E-001
 723.50  7.8010E-001
 724.00  7.8012E-001
 724.50  7.8051E-001
 725.00  7.8089E-001
 725.50  7.8087E-001
 726.00  7.8044E-001
 726.50  7.7953E-001
 727.00  7.7825E-001
 727.50  7.7701E-001
 728.00  7.7546E-001
 728.50  7.7338E-001
 729.00  7.7138E-001
 729.50  7.6941E-001
 730.00  7.6747E-001
 730.50  7.6601E-001
 731.00  7.6538E-001
 731.50  7.6470E-001
 732.00  7.6386E-001
 732.50  7.6295E-001
 733.00  7.6145E-001
 733.50  7.5971E-001
 734.00  7.5813E-001
 734.50  7.5635E-001
 735.00  7.5428E-001
 735.50  7.5271E-001
 736.00  7.5125E-001
 736.50  7.4936E-001
 737.00  7.4744E-001
 737.50  7.4524E-001
 738.00  7.4268E-001
 738.50  7.4028E-001
 739.00  7.3831E-001
 739.50  7.3660E-001
 740.00  7.3499E-001
 740.50  7.3310E-001
 741.00  7.3067E-001
 741.50  7.2767E-001
 742.00  7.2430E-001
 742.50  7.2083E-001
 743.00  7.1741E-001
 743.50  7.1434E-001
 744.00  7.1165E-001
 744.50  7.0897E-001
 745.00  7.0618E-001
 745.50  7.0343E-001
 746.00  7.0054E-001
 746.50  6.9787E-001
 747.00  6.9572E-001
 747.50  6.9368E-001
 748.00  6.9162E-001
 748.50  6.8948E-001
 749.00  6.8698E-001
 749.50  6.8402E-001
 750.00  6.8074E-001
 750.50  6.7733E-001
 751.00  6.7365E-001
 751.50  6.6982E-001
 752.00  6.6608E-001
 752.50  6.6267E-001
 753.00  6.5960E-001
 753.50  6.5648E-001
 754.00  6.5323E-001
 754.50  6.5018E-001
 755.00  6.4722E-001
 755.50  6.4412E-001
 756.00  6.4093E-001
 756.50  6.3756E-001
 757.00  6.3391E-001
 757.50  6.2989E-001
 758.00  6.2582E-001
 758.50  6.2194E-001
 759.00  6.1807E-001
 759.50  6.1426E-001
 760.00  6.1065E-001
 760.50  6.0705E-001
 761.00  6.0367E-001
 761.50  6.0041E-001
 762.00  5.9702E-001
 762.50  5.9389E-001
 763.00  5.9110E-001
 763.50  5.8840E-001
 764.00  5.8575E-001
 764.50  5.8295E-001
 765.00  5.7983E-001
 765.50  5.7650E-001
 766.00  5.7310E-001
 766.50  5.6996E-001
 767.00  5.6723E-001
 767.50  5.6470E-001
 768.00  5.6239E-001
 768.50  5.6008E-001
 769.00  5.5754E-001
 769.50  5.5468E-001
 770.00  5.5180E-001
 770.50  5.4887E-001
 771.00  5.4561E-001
 771.50  5.4235E-001
 772.00  5.3934E-001
 772.50  5.3639E-001
 773.00  5.3386E-001
 773.50  5.3192E-001
 774.00  5.3026E-001
 774.50  5.2870E-001
 775.00  5.2700E-001
 775.50  5.2499E-001
 776.00  5.2268E-001
 776.50  5.2009E-001
 777.00  5.1750E-001
 777.50  5.1534E-001
 778.00  5.1373E-001
 778.50  5.1235E-001
 779.00  5.1132E-001
 779.50  5.1047E-001
 780.00  5.0934E-001
 780.50  5.0792E-001
 781.00  5.0645E-001
 781.50  5.0494E-001
 782.00  5.0329E-001
 782.50  5.0163E-001
 783.00  5.0010E-001
 783.50  4.9848E-001
 784.00  4.9674E-001
 784.50  4.9510E-001
 785.00  4.9340E-001
 785.50  4.9163E-001
 786.00  4.9007E-001
 786.50  4.8853E-001
 787.00  4.8721E-001
 787.50  4.8633E-001
 788.00  4.8540E-001
 788.50  4.8415E-001
 789.00  4.8279E-001
 789.50  4.8118E-001
 790.00  4.7947E-001
 790.50  4.7810E-001
 791.00  4.7718E-001
 791.50  4.7649E-001
 792.00  4.7581E-001
 792.50  4.7499E-001
 793.00  4.7400E-001
 793.50  4.7311E-001
 794.00  4.7235E-001
 794.50  4.7156E-001
 795.00  4.7095E-001
 795.50  4.7049E-001
 796.00  4.6969E-001
 796.50  4.6863E-001
 797.00  4.6761E-001
 797.50  4.6657E-001
 798.00  4.6587E-001
 798.50  4.6563E-001
 799.00  4.6560E-001
 799.50  4.6559E-001
 800.00  4.6524E-001
 800.50  4.6430E-001
 801.00  4.6311E-001
 801.50  4.6202E-001
 802.00  4.6107E-001
 802.50  4.6028E-001
 803.00  4.5959E-001
 803.50  4.5875E-001
 804.00  4.5764E-001
 804.50  4.5650E-001
 805.00  4.5551E-001
 805.50  4.5465E-001
 806.00  4.5393E-001
 806.50  4.5364E-001
 807.00  4.5352E-001
 807.50  4.5307E-001
 808.00  4.5257E-001
 808.50  4.5219E-001
 809.00  4.5174E-001
 809.50  4.5110E-001
 810.00  4.5050E-001
 810.50  4.5007E-001
 811.00  4.4960E-001
 811.50  4.4906E-001
 812.00  4.4885E-001
 812.50  4.4884E-001
 813.00  4.4878E-001
 813.50  4.4884E-001
 814.00  4.4889E-001
 814.50  4.4862E-001
 815.00  4.4810E-001
 815.50  4.4742E-001
 816.00  4.4654E-001
 816.50  4.4571E-001
 817.00  4.4507E-001
 817.50  4.4463E-001
 818.00  4.4441E-001
 818.50  4.4438E-001
 819.00  4.4441E-001
 819.50  4.4435E-001
 820.00  4.4418E-001
 820.50  4.4377E-001
 821.00  4.4315E-001
 821.50  4.4260E-001
 822.00  4.4223E-001
 822.50  4.4193E-001
 823.00  4.4173E-001
 823.50  4.4141E-001
 824.00  4.4095E-001
 824.50  4.4037E-001
 825.00  4.3974E-001
 825.50  4.3924E-001
 826.00  4.3911E-001
 826.50  4.3905E-001
 827.00  4.3891E-001
 827.50  4.3847E-001
 828.00  4.3789E-001
 828.50  4.3710E-001
 829.00  4.3613E-001
 829.50  4.3529E-001
 830.00  4.3462E-001
 830.50  4.3404E-001
 831.00  4.3361E-001
 831.50  4.3319E-001
 832.00  4.3281E-001
 832.50  4.3253E-001
 833.00  4.3228E-001
 833.50  4.3200E-001
 834.00  4.3169E-001
 834.50  4.3140E-001
 835.00  4.3113E-001
 835.50  4.3064E-001
 836.00  4.3011E-001
 836.50  4.2976E-001
 837.00  4.2920E-001
 837.50  4.2849E-001
 838.00  4.2810E-001
 838.50  4.2801E-001
 839.00  4.2804E-001
 839.50  4.2828E-001
 840.00  4.2851E-001
 840.50  4.2858E-001
 841.00  4.2864E-001
 841.50  4.2854E-001
 842.00  4.2843E-001
 842.50  4.2849E-001
 843.00  4.2834E-001
 843.50  4.2805E-001
 844.00  4.2788E-001
 844.50  4.2764E-001
 845.00  4.2747E-001
 845.50  4.2750E-001
 846.00  4.2762E-001
 846.50  4.2773E-001
 847.00  4.2766E-001
 847.50  4.2741E-001
 848.00  4.2699E-001
 848.50  4.2629E-001
 849.00  4.2553E-001
 849.50  4.2500E-001
 850.00  4.2466E-001
 850.50  4.2446E-001
 851.00  4.2435E-001
 851.50  4.2420E-001
 852.00  4.2386E-001
 852.50  4.2323E-001
 853.00  4.2246E-001
 853.50  4.2174E-001
 854.00  4.2117E-001
 854.50  4.2072E-001
 855.00  4.2048E-001
 855.50  4.2044E-001
 856.00  4.2028E-001
 856.50  4.1990E-001
 857.00  4.1961E-001
 857.50  4.1940E-001
 858.00  4.1920E-001
 858.50  4.1931E-001
 859.00  4.1947E-001
 859.50  4.1954E-001
 860.00  4.1931E-001
 860.50  4.1874E-001
 861.00  4.1813E-001
 861.50  4.1767E-001
 862.00  4.1733E-001
 862.50  4.1736E-001
 863.00  4.1765E-001
 863.50  4.1778E-001
 864.00  4.1772E-001
 864.50  4.1744E-001
 865.00  4.1700E-001
 865.50  4.1660E-001
 866.00  4.1627E-001
 866.50  4.1602E-001
 867.00  4.1601E-001
 867.50  4.1597E-001
 868.00  4.1578E-001
 868.50  4.1553E-001
 869.00  4.1529E-001
 869.50  4.1504E-001
 870.00  4.1492E-001
 870.50  4.1500E-001
 871.00  4.1510E-001
 871.50  4.1515E-001
 872.00  4.1505E-001
 872.50  4.1477E-001
 873.00  4.1435E-001
 873.50  4.1390E-001
 874.00  4.1339E-001
 874.50  4.1287E-001
 875.00  4.1243E-001
 875.50  4.1206E-001
 876.00  4.1178E-001
 876.50  4.1157E-001
 877.00  4.1137E-001
 877.50  4.1117E-001
 878.00  4.1110E-001
 878.50  4.1127E-001
 879.00  4.1161E-001
 879.50  4.1200E-001
 880.00  4.1251E-001
 880.50  4.1300E-001
 881.00  4.1326E-001
 881.50  4.1346E-001
 882.00  4.1362E-001
 882.50  4.1334E-001
 883.00  4.1287E-001
 883.50  4.1247E-001
 884.00  4.1208E-001
 884.50  4.1181E-001
 885.00  4.1194E-001
 885.50  4.1225E-001
 886.00  4.1247E-001
 886.50  4.1255E-001
 887.00  4.1252E-001
 887.50  4.1228E-001
 888.00  4.1195E-001
 888.50  4.1173E-001
 889.00  4.1152E-001
 889.50  4.1123E-001
 890.00  4.1087E-001
 890.50  4.1037E-001
 891.00  4.0980E-001
 891.50  4.0945E-001
 892.00  4.0931E-001
 892.50  4.0942E-001
 893.00  4.0977E-001
 893.50  4.1011E-001
 894.00  4.1033E-001
 894.50  4.1044E-001
 895.00  4.1032E-001
 895.50  4.0997E-001
 896.00  4.0954E-001
 896.50  4.0905E-001
 897.00  4.0862E-001
 897.50  4.0829E-001
 898.00  4.0816E-001
 898.50  4.0827E-001
 899.00  4.0843E-001
 899.50  4.0862E-001
 900.00  4.0887E-001
 900.50  4.0904E-001
 901.00  4.0905E-001
 901.50  4.0892E-001
 902.00  4.0865E-001
 902.50  4.0835E-001
 903.00  4.0806E-001
 903.50  4.0787E-001
 904.00  4.0784E-001
 904.50  4.0780E-001
 905.00  4.0778E-001
 905.50  4.0793E-001
 906.00  4.0807E-001
 906.50  4.0805E-001
 907.00  4.0811E-001
 907.50  4.0811E-001
 908.00  4.0796E-001
 908.50  4.0783E-001
 909.00  4.0777E-001
 909.50  4.0768E-001
 910.00  4.0740E-001
 910.50  4.0683E-001
 911.00  4.0619E-001
 911.50  4.0562E-001
 912.00  4.0514E-001
 912.50  4.0499E-001
 913.00  4.0523E-001
 913.50  4.0561E-001
 914.00  4.0590E-001
 914.50  4.0612E-001
 915.00  4.0625E-001
 915.50  4.0617E-001
 916.00  4.0597E-001
 916.50  4.0575E-001
 917.00  4.0545E-001
 917.50  4.0502E-001
 918.00  4.0461E-001
 918.50  4.0441E-001
 919.00  4.0435E-001
 919.50  4.0438E-001
 920.00  4.0456E-001
 920.50  4.0474E-001
 921.00  4.0468E-001
 921.50  4.0458E-001
 922.00  4.0460E-001
 922.50  4.0451E-001
 923.00  4.0448E-001
 923.50  4.0447E-001
 924.00  4.0428E-001
 924.50  4.0390E-001
 925.00  4.0341E-001
 925.50  4.0284E-001
 926.00  4.0242E-001
 926.50  4.0218E-001
 927.00  4.0213E-001
 927.50  4.0241E-001
 928.00  4.0283E-001
 928.50  4.0317E-001
 929.00  4.0346E-001
 929.50  4.0371E-001
 930.00  4.0375E-001
 930.50  4.0363E-001
 931.00  4.0354E-001
 931.50  4.0354E-001
 932.00  4.0357E-001
 932.50  4.0358E-001
 933.00  4.0364E-001
 933.50  4.0373E-001
 934.00  4.0362E-001
 934.50  4.0330E-001
 935.00  4.0290E-001
 935.50  4.0244E-001
 936.00  4.0197E-001
 936.50  4.0171E-001
 937.00  4.0170E-001
 937.50  4.0182E-001
 938.00  4.0199E-001
 938.50  4.0210E-001
 939.00  4.0205E-001
 939.50  4.0197E-001
 940.00  4.0194E-001
 940.50  4.0182E-001
 941.00  4.0162E-001
 941.50  4.0148E-001
 942.00  4.0133E-001
 942.50  4.0117E-001
 943.00  4.0120E-001
 943.50  4.0147E-001
 944.00  4.0176E-001
 944.50  4.0191E-001
 945.00  4.0190E-001
 945.50  4.0180E-001
 946.00  4.0156E-001
 946.50  4.0127E-001
 947.00  4.0115E-001
 947.50  4.0120E-001
 948.00  4.0116E-001
 948.50  4.0098E-001
 949.00  4.0080E-001
 949.50  4.0051E-001
 950.00  4.0016E-001
 950.50  3.9995E-001
 951.00  3.9979E-001
 951.50  3.9951E-001
 952.00  3.9936E-001
 952.50  3.9940E-001
 953.00  3.9927E-001
 953.50  3.9915E-001
 954.00  3.9927E-001
 954.50  3.9925E-001
 955.00  3.9894E-001
 955.50  3.9885E-001
 956.00  3.9884E-001
 956.50  3.9855E-001
 957.00  3.9839E-001
 957.50  3.9864E-001
 958.00  3.9891E-001
 958.50  3.9900E-001
 959.00  3.9906E-001
 959.50  3.9908E-001
 960.00  3.9893E-001
 960.50  3.9868E-001
 961.00  3.9861E-001
 961.50  3.9882E-001
 962.00  3.9919E-001
 962.50  3.9962E-001
 963.00  4.0004E-001
 963.50  4.0046E-001
 964.00  4.0086E-001
 964.50  4.0109E-001
 965.00  4.0124E-001
 965.50  4.0141E-001
 966.00  4.0148E-001
 966.50  4.0128E-001
 967.00  4.0092E-001
 967.50  4.0041E-001
 968.00  3.9981E-001
 968.50  3.9921E-001
 969.00  3.9868E-001
 969.50  3.9825E-001
 970.00  3.9822E-001
 970.50  3.9845E-001
 971.00  3.9874E-001
 971.50  3.9893E-001
 972.00  3.9878E-001
 972.50  3.9825E-001
 973.00  3.9749E-001
 973.50  3.9670E-001
 974.00  3.9615E-001
 974.50  3.9592E-001
 975.00  3.9605E-001
 975.50  3.9631E-001
 976.00  3.9648E-001
 976.50  3.9662E-001
 977.00  3.9662E-001
 977.50  3.9630E-001
 978.00  3.9583E-001
 978.50  3.9540E-001
 979.00  3.9500E-001
 979.50  3.9479E-001
 980.00  3.9502E-001
 980.50  3.9564E-001
 981.00  3.9649E-001
 981.50  3.9731E-001
 982.00  3.9787E-001
 982.50  3.9811E-001
 983.00  3.9807E-001
 983.50  3.9777E-001
 984.00  3.9761E-001
 984.50  3.9783E-001
 985.00  3.9830E-001
 985.50  3.9881E-001
 986.00  3.9932E-001
 986.50  3.9971E-001
 987.00  3.9980E-001
 987.50  3.9966E-001
 988.00  3.9952E-001
 988.50  3.9933E-001
 989.00  3.9880E-001
 989.50  3.9815E-001
 990.00  3.9788E-001
 990.50  3.9779E-001
 991.00  3.9748E-001
 991.50  3.9729E-001
 992.00  3.9738E-001
 992.50  3.9715E-001
 993.00  3.9672E-001
 993.50  3.9659E-001
 994.00  3.9650E-001
 994.50  3.9626E-001
 995.00  3.9595E-001
 995.50  3.9585E-001
 996.00  3.9610E-001
 996.50  3.9651E-001
 997.00  3.9674E-001
 997.50  3.9679E-001
 998.00  3.9672E-001
 998.50  3.9642E-001
 999.00  3.9592E-001
 999.50  3.9526E-001
1000.00  3.9457E-001
1000.50  3.9416E-001
1001.00  3.9416E-001
1001.50  3.9444E-001
1002.00  3.9494E-001
1002.50  3.9540E-001
1003.00  3.9548E-001
1003.50  3.9516E-001
1004.00  3.9463E-001
1004.50  3.9421E-001
1005.00  3.9408E-001
1005.50  3.9417E-001
1006.00  3.9441E-001
1006.50  3.9464E-001
1007.00  3.9472E-001
1007.50  3.9454E-001
1008.00  3.9424E-001
1008.50  3.9404E-001
1009.00  3.9389E-001
1009.50  3.9366E-001
1010.00  3.9388E-001
1010.50  3.9486E-001
1011.00  3.9601E-001
1011.50  3.9711E-001
1012.00  3.9849E-001
1012.50  3.9932E-001
1013.00  3.9891E-001
1013.50  3.9808E-001
1014.00  3.9767E-001
1014.50  3.9723E-001
1015.00  3.9696E-001
1015.50  3.9708E-001
1016.00  3.9735E-001
1016.50  3.9742E-001
1017.00  3.9736E-001
1017.50  3.9753E-001
1018.00  3.9744E-001
1018.50  3.9721E-001
1019.00  3.9728E-001
1019.50  3.9744E-001
1020.00  3.9742E-001
1020.50  3.9739E-001
1021.00  3.9709E-001
1021.50  3.9649E-001
1022.00  3.9590E-001
1022.50  3.9525E-001
1023.00  3.9469E-001
1023.50  3.9455E-001
1024.00  3.9457E-001
1024.50  3.9428E-001
1025.00  3.9401E-001
1025.50  3.9393E-001
1026.00  3.9373E-001
1026.50  3.9359E-001
1027.00  3.9350E-001
1027.50  3.9320E-001
1028.00  3.9291E-001
1028.50  3.9282E-001
1029.00  3.9285E-001
1029.50  3.9317E-001
1030.00  3.9402E-001
1030.50  3.9543E-001
1031.00  3.9676E-001
1031.50  3.9769E-001
1032.00  3.9877E-001
1032.50  3.9979E-001
1033.00  4.0034E-001
1033.50  4.0074E-001
1034.00  4.0095E-001
1034.50  4.0029E-001
1035.00  3.9915E-001
1035.50  3.9802E-001
1036.00  3.9728E-001
1036.50  3.9720E-001
1037.00  3.9756E-001
1037.50  3.9792E-001
1038.00  3.9826E-001
1038.50  3.9858E-001
1039.00  3.9902E-001
1039.50  3.9963E-001
1040.00  4.0044E-001
1040.50  4.0101E-001
1041.00  4.0110E-001
1041.50  4.0084E-001
1042.00  4.0024E-001
1042.50  3.9937E-001
1043.00  3.9891E-001
1043.50  3.9879E-001
1044.00  3.9846E-001
1044.50  3.9846E-001
1045.00  3.9927E-001
1045.50  4.0003E-001
1046.00  4.0038E-001
1046.50  4.0072E-001
1047.00  4.0069E-001
1047.50  4.0058E-001
1048.00  4.0103E-001
1048.50  4.0218E-001
1049.00  4.0374E-001
1049.50  4.0500E-001
1050.00  4.0508E-001
1050.50  4.0418E-001
1051.00  4.0303E-001
1051.50  4.0216E-001
1052.00  4.0232E-001
1052.50  4.0326E-001
1053.00  4.0427E-001
1053.50  4.0489E-001
1054.00  4.0497E-001
1054.50  4.0483E-001
1055.00  4.0498E-001
1055.50  4.0545E-001
1056.00  4.0600E-001
1056.50  4.0660E-001
1057.00  4.0692E-001
1057.50  4.0684E-001
1058.00  4.0678E-001
1058.50  4.0685E-001
1059.00  4.0734E-001
1059.50  4.0873E-001
1060.00  4.1033E-001
1060.50  4.1112E-001
1061.00  4.1149E-001
1061.50  4.1096E-001
1062.00  4.0903E-001
1062.50  4.0659E-001
1063.00  4.0467E-001
1063.50  4.0287E-001
1064.00  4.0148E-001
1064.50  4.0127E-001
1065.00  4.0207E-001
1065.50  4.0326E-001
1066.00  4.0483E-001
1066.50  4.0655E-001
1067.00  4.0732E-001
1067.50  4.0625E-001
1068.00  4.0385E-001
1068.50  4.0220E-001
1069.00  4.0196E-001
1069.50  4.0236E-001
1070.00  4.0416E-001
1070.50  4.0724E-001
1071.00  4.0916E-001
1071.50  4.0912E-001
1072.00  4.0938E-001
1072.50  4.0877E-001
1073.00  4.0730E-001
1073.50  4.0643E-001
1074.00  4.0608E-001
1074.50  4.0445E-001
1075.00  4.0212E-001
1075.50  3.9920E-001
1076.00  3.9678E-001
1076.50  3.9524E-001
1077.00  3.9499E-001
1077.50  3.9740E-001
1078.00  4.0234E-001
1078.50  4.0745E-001
1079.00  4.1243E-001
1079.50  4.1529E-001
1080.00  4.1622E-001
1080.50  4.1571E-001
1081.00  4.1475E-001
1081.50  4.1343E-001
1082.00  4.1304E-001
1082.50  4.1310E-001
1083.00  4.1245E-001
1083.50  4.1103E-001
1084.00  4.0997E-001
1084.50  4.0967E-001
1085.00  4.0935E-001
1085.50  4.1037E-001
1086.00  4.1266E-001
1086.50  4.1446E-001
1087.00  4.1555E-001
1087.50  4.1710E-001
1088.00  4.1897E-001
1088.50  4.2060E-001
1089.00  4.2188E-001
1089.50  4.2325E-001
1090.00  4.2440E-001
1090.50  4.2381E-001
1091.00  4.2093E-001
1091.50  4.1788E-001
1092.00  4.1592E-001
1092.50  4.1440E-001
1093.00  4.1391E-001
1093.50  4.1522E-001
1094.00  4.1677E-001
1094.50  4.1721E-001
1095.00  4.1676E-001
1095.50  4.1605E-001
1096.00  4.1573E-001
1096.50  4.1636E-001
1097.00  4.1758E-001
1097.50  4.1874E-001
1098.00  4.1929E-001
1098.50  4.1893E-001
1099.00  4.1784E-001
1099.50  4.1685E-001
1100.00  4.1735E-001
1100.50  4.1979E-001
1101.00  4.2299E-001
1101.50  4.2612E-001
1102.00  4.2774E-001
1102.50  4.2594E-001
1103.00  4.2147E-001
1103.50  4.1623E-001
1104.00  4.1154E-001
1104.50  4.0848E-001
1105.00  4.0805E-001
1105.50  4.0940E-001
1106.00  4.1272E-001
1106.50  4.1809E-001
1107.00  4.2427E-001
1107.50  4.2905E-001
1108.00  4.3260E-001
1108.50  4.3487E-001
1109.00  4.3520E-001
1109.50  4.3437E-001
1110.00  4.3401E-001
1110.50  4.3425E-001
1111.00  4.3447E-001
1111.50  4.3434E-001
1112.00  4.3423E-001
1112.50  4.3472E-001
1113.00  4.3386E-001
1113.50  4.3282E-001
1114.00  4.3200E-001
1114.50  4.3136E-001
1115.00  4.3083E-001
1115.50  4.3327E-001
1116.00  4.3612E-001
1116.50  4.3759E-001
1117.00  4.3888E-001
1117.50  4.4005E-001
1118.00  4.3913E-001
1118.50  4.3708E-001
1119.00  4.3476E-001
1119.50  4.3261E-001
1120.00  4.3109E-001
1120.50  4.2953E-001
1121.00  4.2798E-001
1121.50  4.2767E-001
1122.00  4.2771E-001
1122.50  4.2944E-001
1123.00  4.3202E-001
1123.50  4.3410E-001
1124.00  4.3679E-001
1124.50  4.3412E-001
1125.00  4.3861E-001
1125.50  6.9619E-003
